 Va = Vs (V)   Ia (mA)
               Vg =  0  V     Vg = -2  V     Vg = -4  V     Vg = -6  V     Vg = -8  V     Vg = -10  V    Vg = -12  V 
 1.84          0.061          0              0              0              0              0              0  
 15.29         0.583          0              0              0              0              0              0  
 29.17         1.44           0.027          0              0              0              0              0  
 43.91         2.562          0.291          0              0              0              0              0  
 59.08         3.914          0.995          0.007          0              0              0              0  
 73.82         5.341          1.981          0.081          0              0              0              0  
 88.12         6.901          3.202          0.388          0.002          0              0              0  
 103.71        8.614          4.632          1.054          0.03           0              0              0  
 118.44        10.368         6.151          2.009          0.16           0.002          0              0.001  
 133.17        12.209         7.798          3.189          0.503          0.011          0              0  
 147.9         14.136         9.545          4.578          1.156          0.07           0.001          0  
 162.62        16.117         11.399         6.084          2.08           0.248          0.005          0  
 177.35        18.152         13.279         7.684          3.215          0.623          0.03           0  
 192.5         20.348         15.287         9.478          4.584          1.281          0.117          0.003  
 207.22        22.516         17.349         11.312         6.064          2.179          0.327          0.016  
 221.94        24.765         19.437         13.226         7.677          3.293          0.721          0.063  
 237.1         27.094         21.659         15.234         9.438          4.624          1.363          0.184  
 251.38        29.45          23.855         17.269         11.231         6.051          2.218          0.423  
 266.1         31.807         26.077         19.357         13.119         7.63           3.285          0.838  
 281.25        34.323         28.433         21.552         15.1           9.344          4.562          1.472  
 295.97        36.84          30.789         23.775         17.162         11.138         5.964          2.312  
